r,t,r_filt,v,tau,v_need,a_need,cmnd,marker
1.657,6.4131398201,1.657,0.0,0.0,0.0,0.0,-0.539,0.0
1.653,6.41586685181,1.653,-1.46679629306,-1.12694585323,0.0,0.0,-0.539,0.0
1.647,6.56146192551,1.647,-0.0412101855339,-39.9658477306,0.0,0.0,-0.539,0.0
1.643,6.61122488976,1.643,-0.0803810637166,-20.4401375651,0.0,0.0,-0.539,0.0
1.633,6.67616701126,1.633,-0.153983266455,-10.6050484419,0.0,0.0,-0.539,0.0
1.622,6.74034690857,1.622,-0.171393231546,-9.46361758492,0.0,0.0,-0.539,0.0
1.605,6.80569887161,1.605,-0.260129905949,-6.1699941579,0.0,0.0,-0.539,0.0
1.584,6.8715569973,1.584,-0.318867258688,-4.96758433751,0.0,0.0,-0.539,0.0
1.564,6.93673992157,1.564,-0.306828824018,-5.09730467796,0.0,0.0,-0.539,0.0
1.539,7.00139379501,1.539,-0.386674435242,-3.98009244919,0.0,0.0,-0.539,0.0
1.512,7.06634187698,1.512,-0.415716664464,-3.63709259033,0.0,0.0,-0.539,0.0
1.483,7.13166594505,1.483,-0.443940508561,-3.34053768783,0.0,0.0,-0.539,0.0
1.454,7.1958630085,1.454,-0.451734058278,-3.21870793967,-0.447055845086,0.0701731978707,-0.597,1
1.423,7.26152682304,1.423,-0.472101723224,-3.01418090636,-0.466880827532,0.0783134353728,-0.62,1
1.392,7.32728791237,1.392,-0.471403383341,-2.95288504324,-0.466081995654,0.079820815311,-0.62,1
1.361,7.3915169239,1.361,-0.482647938351,-2.81986079677,-0.476942598346,0.0855801000714,-0.633,1
1.33,7.45597696304,1.33,-0.480918107003,-2.76554361466,-0.475121559995,0.0869482051293,-0.63,1
1.297,7.52248597145,1.297,-0.496173387487,-2.61400557287,-0.489846272852,0.094906719526,-0.648,1
1.266,7.58611893654,1.266,-0.487168874768,-2.59868818714,-0.480919967118,0.0937336147482,-0.637,1
1.234,7.65150499344,1.234,-0.489400975026,-2.52144981921,-0.482931139414,0.0970475341802,-0.64,1
1.2,7.71763300896,1.2,-0.514154246632,-2.33392995947,-0.506811063595,0.110147745554,-0.668,1
1.168,7.78083181381,1.168,-0.50633868905,-2.30675637722,-0.499021940533,0.109751227752,-0.659,1
1.136,7.84645700455,1.136,-0.48761763039,-2.32969427109,-0.480640783163,0.104652708392,-0.637,1
1.103,7.9114408493,1.103,-0.507818522024,-2.17203578082,-0.500025241537,0.116899207303,-0.66,1
1.07,7.97582793236,1.07,-0.512525159317,-2.08770238992,-0.504341918229,0.122748616324,-0.665,1
1.035,8.0412569046,1.035,-0.534931220826,-1.93482817922,-0.525715394384,0.138237396625,-0.69,1
1.001,8.10580301285,1.001,-0.526755228534,-1.90031336336,-0.517515432637,0.138596938455,-0.681,1
0.967,8.17196679115,0.967,-0.513876336434,-1.88177569473,-0.504773651527,0.136540273602,-0.666,1
0.933,8.23615288734,0.933,-0.529709734934,-1.76134199255,-0.51968499741,0.150371062853,-0.683,1
0.904,8.30245184898,0.904,-0.437412582081,-2.06669866628,-0.430357649671,0.105823986152,-0.576,1
0.873,8.36923980713,0.873,-0.464155528346,-1.88083507938,-0.455929474337,0.123390810134,-0.607,1
0.841,8.43541193008,0.841,-0.483587326065,-1.73908610642,-0.474318332726,0.139034900078,-0.629,1
0.809,8.49678397179,0.809,-0.521410060875,-1.55156192929,-0.510208229331,0.168027473165,-0.672,1
0.778,8.56107592583,0.778,-0.4821754209,-1.61352065302,-0.472214275377,0.149417182854,-0.627,1
0.748,8.62658190727,0.748,-0.457973445143,-1.6332824707,-0.448626757244,0.140200318487,-0.598,1
0.719,8.69233393669,0.719,-0.44105102544,-1.63019686732,-0.432032666282,0.135275387373,-0.578,1
0.689,8.75640892982,0.689,-0.468201376744,-1.47158900897,-0.45759602942,0.159080209859,-0.609,1
0.663,8.82103991508,0.663,-0.402283825558,-1.64809012413,-0.394147461742,0.122045457244,-0.532,1
0.634,8.88739395142,0.634,-0.43704952409,-1.45063651841,-0.427006817123,0.150640604501,-0.572,1
0.606,8.95168995857,0.606,-0.435485829344,-1.39154929774,-0.42505415126,0.156475171254,-0.57,1
0.577,9.01640582085,0.577,-0.448112703453,-1.28762250111,-0.436512183812,0.174007794624,-0.584,1
0.547,9.08192491531,0.547,-0.457881786126,-1.19463148912,-0.445105690449,0.191641435161,-0.594,1
0.52,9.148416996,0.52,-0.406063394624,-1.28058822067,-0.395493684339,0.158545654283,-0.534,1
0.492,9.21210289001,0.492,-0.439657799175,-1.11905213765,-0.426561662293,0.196442053227,-0.572,1
0.462,9.27810788155,0.462,-0.454511080207,-1.01647686958,-0.439606295068,0.22357177709,-0.588,1
0.435,9.3420419693,0.435,-0.422309928065,-1.03004919158,-0.40864359279,0.204995029129,-0.55,1
0.406,9.40776491165,0.406,-0.441246221822,-0.920121192932,-0.42526114561,0.239776143193,-0.57,1
0.379,9.47297596931,0.379,-0.414040209861,-0.915370031639,-0.398962875174,0.226160020292,-0.538,1
0.351,9.53710079193,0.351,-0.436648381352,-0.803850454944,-0.41854184679,0.271598018429,-0.562,1
0.323,9.60261583328,0.323,-0.427382772299,-0.755762798446,-0.408532820384,0.282749278727,-0.55,1
0.295,9.66768193245,0.295,-0.430331622128,-0.685517830508,-0.409406728907,0.31387339831,-0.551,1
0.265,9.73258686066,0.265,-0.462214516348,-0.573326865832,-0.435341276207,0.403098602119,-0.582,1
0.239,9.79742598534,0.239,-0.400992458311,-0.596021184554,-0.378566384166,0.336391112181,-0.513,1
0.213,9.86219191551,0.213,-0.401445635528,-0.530582427979,-0.376225197612,0.378306568744,-0.51,1
0.187,9.92810988426,0.187,-0.39442962963,-0.474102313702,-0.366697948216,0.415975221203,-0.498,1
0.16,9.99298882484,0.16,-0.416159693079,-0.384467796043,-0.380078674299,0.541215281698,-0.514,1
0.133,10.0578508377,0.133,-0.416268302634,-0.31950547077,-0.3728399067,0.651425939016,-0.505,1
0.106,10.1228048801,0.106,-0.415678516501,-0.255004759188,-0.36134246962,0.81504070321,-0.491,1
0.08,10.1877439022,0.08,-0.400375601195,-0.199812375582,-0.333583675349,1.0018788877,-0.456,1
0.057,10.252147913,0.057,-0.357120616,-0.159609939741,-0.282538666075,1.11872924888,-0.39,1
0.034,10.3172500134,0.034,-0.353291212856,-0.0962378875069,-0.230923878463,1.8355100159,-0.322,1
0.012,10.3828589916,0.012,-0.335319960463,-0.0357867154208,-0.0229880830051,4.68497816187,-0.028,1
-0.008,10.4476518631,-0.008,-0.308675932161,0.0259171485901,-0.705679395059,-5.95505194347,-0.894,1
